row_id,energy
94993,1991.0715753482498
94994,1828.2332059154564
94995,1699.349724472325
94996,1592.1811484306152
94997,1502.1680471678706
94998,1431.407425929993
94999,1370.1968637865955
95000,1318.040075515847
95001,1276.4587524745114
95002,1250.1371822012993
95003,1210.5620715672246
95004,1130.08890407561
95005,1031.9444093529146
95006,947.5475714668008
95007,880.7490747277186
95008,825.2051082155091
95009,778.5525831296843
95010,741.8783478119534
95011,710.1537738793562
95012,683.1216436776136
95013,661.5706284467831
95014,647.9285285719556
95015,627.4173050308262
95016,585.7091935173726
95017,534.8422815028522
95018,491.1005867782884
95019,456.47986489338166
95020,427.6922078220708
95021,403.51285985659496
95022,384.50511921482206
95023,368.0627184924267
95024,354.05234539486037
95025,342.88275713962884
95026,335.8122485391532
95027,325.18156970052115
95028,303.5648417868356
95029,277.20123631712784
95030,254.53053081085264
95031,236.58709731542805
95032,221.66685931850313
95033,209.13504315292536
95034,199.28359836682978
95035,190.76173320040624
95036,183.5003537653383
95037,177.71131318162946
95038,174.04676796292412
95039,168.537036554482
95040,157.33339033943858
95041,143.66950421314877
95042,131.9195962274476
95043,122.61976687452214
95044,114.8868172519308
95045,108.39175309089252
95046,103.28588773832118
95047,98.86912481295424
95048,95.10565392371815
95049,92.10527556472792
95050,90.2059932897537
95051,87.35037695010324
95052,81.54368460457076
95053,74.46188449620782
95054,68.372072353651
95055,63.55210152612864
95056,59.54422243748004
95057,56.17792198281174
95058,53.53162374284356
95059,51.242477604301335
95060,49.291923544872134
95061,47.73686961720914
95062,46.752498311973696
95063,45.27247250403974
95064,42.2629454850241
95065,38.592548036503544
95066,35.436284006456404
95067,32.93816088005103
95068,30.860933486470266
95069,29.116227280321183
95070,27.74468810110409
95071,26.558255835630515
95072,25.547311085230703
95073,24.741348493648104
95074,24.23116268328241
95075,23.464086111498027
95076,21.904290561944997
95077,20.00197515852134
95078,18.36612787880757
95079,17.07138577807803
95080,15.994788019212704
95081,15.090531317600167
95082,14.379681840501881
95083,13.764770674780866
95084,13.24081222132482
95085,12.823093139384845
95086,12.55867100546634
95087,12.161106000973701
95088,11.35268589341766
95089,10.366742560343045
95090,9.518905910090762
95091,8.847859279249274
95092,8.289873794378577
95093,7.821210256913456
95094,7.452786965222038
95095,7.134087151729148
95096,6.862526850496583
95097,6.646028922132259
95098,6.508982647058676
95099,6.30293029373291
95100,5.88393751580878
95101,5.372936945511767
95102,4.933515127579722
95103,4.585721091601451
95104,4.2965250582987915
95105,4.053623334753218
95106,3.862674721532289
95107,3.6974970881072924
95108,3.5567512012548197
95109,3.4445433682576683
95110,3.3735142103229068
95111,3.266720172036591
95112,3.049562104947803
95113,2.7847176924098354
95114,2.556971541052441
95115,2.376714781085744
95116,2.2268285422037892
95117,2.100935993317795
95118,2.001970011217144
95119,1.9163607656865023
95120,1.8434141509715471
95121,1.7852584084152991
95122,1.7484449943023475
95123,1.693095145443946
95124,1.5805451718253611
95125,1.443280035679208
95126,1.325242406819081
95127,1.2318178619665592
95128,1.1541339312790773
95129,1.0888855928413355
95130,1.0375929154663275
95131,0.9932228469022099
95132,0.9554156418934435
95133,0.9252743380117934
95134,0.9061944629568698
95135,0.8775074143368494
95136,0.8191743451059241
95137,0.7480317545537417
95138,0.6868545107501494
95139,0.638433882405818
95140,0.5981713931201251
95141,0.5643540964924951
95142,0.5377698228213568
95143,0.5147734399869838
95144,0.49517849708030703
95145,0.47955668296956316
95146,0.4696678519311125
95147,0.4547997578802558
95148,0.42456654807577093
95149,0.38769434343171266
95150,0.3559870379262864
95151,0.3308913068958494
95152,0.31002382466194967
95153,0.29249679518376115
95154,0.2787185398305648
95155,0.26679983786370065
95156,0.2566440543979064
95157,0.24854748773745725
95158,0.2434222456158224
95159,0.2357163214674997
95160,0.2200468738088564
95161,0.20093652844806884
95162,0.18450307770873683
95163,0.1714963130820286
95164,0.16068099037080075
95165,0.1515969773666892
95166,0.1444559012956891
95167,0.13827860560540345
95168,0.13301500579318065
95169,0.12881866910511244
95170,0.12616232815811454
95171,0.12216845599288696
95172,0.11404720153413811
95173,0.10414257816447402
95174,0.09562535164846389
95175,0.08888412837629035
95176,0.08327869864418891
95177,0.07857058239656356
95178,0.07486946304984017
95179,0.0716678575267463
95180,0.06893980773358692
95181,0.06676490541534295
95182,0.06538816124224098
95183,0.06331819344017642
95184,0.059109061413281566
95185,0.053975634348368856
95186,0.04956127557030647
95187,0.046067394308552986
95188,0.043162178872964765
95189,0.040722028402999454
95190,0.0388037902715897
95191,0.03714444313338736
95192,0.035730533273318765
95193,0.03460331197400009
95194,0.033889764821736966
95195,0.03281692960710765
95196,0.030635395644611742
95197,0.02797481255656727
95198,0.025686912453778313
95199,0.023876082908698398
95200,0.022370350586545844
95201,0.021105654898737555
95202,0.02011145903957079
95203,0.01925144274299734
95204,0.018518633137611082
95205,0.0179344101833298
95206,0.017564588724521202
95207,0.017008553313438597
95208,0.01587789492612401
95209,0.014498952110948628
95210,0.01331316564829066
95211,0.01237463814959466
95212,0.011594238252842812
95213,0.010938764255461161
95214,0.010423486516894924
95215,0.00997775215948181
95216,0.009597947241988473
95217,0.009295152697105897
95218,0.009103479433521928
95219,0.008815294096051786
95220,0.00822928974737678
95221,0.007514603069832946
95222,0.006900026614633321
95223,0.0064136010047785305
95224,0.0060091307082389385
95225,0.005669407749281073
95226,0.005402346540552584
95227,0.005171328688716432
95228,0.004974481138831923
95229,0.00481754698255003
95230,0.0047182054243525015
95231,0.004568843014913362
95232,0.00426512519835727
95233,0.0038947131396137907
95234,0.003576186801879168
95235,0.0033240792458924186
95236,0.003114447976765219
95237,0.0029383743425644587
95238,0.0027999602721138807
95239,0.002680226966885343
95240,0.0025782036488322946
95241,0.0024968668816277855
95242,0.0024453795484411745
95243,0.002367967111190524
95244,0.002210554436178519
95245,0.0020185750729502633
95246,0.0018534873495722574
95247,0.001722823547136803
95248,0.001614174607098807
95249,0.0015229181175292926
95250,0.001451180050477498
95251,0.001389123961447989
95252,0.001336246709825298
95253,0.0012940910067201238
95254,0.0012674058456780745
95255,0.0012272840676243553
95256,0.0011456992908884845
95257,0.0010461990855481112
95258,0.0009606364391309746
95259,0.0008929152270472366
95260,0.0008366040086849737
95261,0.0007893070529178453
95262,0.0007521262211745486
95263,0.0007199634225423057
95264,0.0006925578863126806
95265,0.0006707091779687239
95266,0.0006568786341093408
95267,0.0006360840805290194
95268,0.0005937998375699676
95269,0.0005422302797992954
95270,0.0004978843629006721
95271,0.0004627854106230809
95272,0.0004336000977030143
95273,0.0004090867503740699
95274,0.00038981644792606497
95275,0.0003731469215018924
95276,0.00035894301730897865
95277,0.00034761913889783477
95278,0.0003404509624290885
95279,0.00032967343761386485
95280,0.00030775810887050613
95281,0.0002810303319823551
95282,0.00025804646661671196
95283,0.00023985517303116128
95284,0.00022472883559760602
95285,0.00021202391225691398
95286,0.00020203638537743437
95287,0.0001933968041524466
95288,0.00018603512027109333
95289,0.00018016611326840526
95290,0.0001764509481664757
95291,0.00017086510855255464
95292,0.00015950670172487213
95293,0.00014565407067149806
95294,0.00013374185633272065
95295,0.00012431356457920942
95296,0.00011647379651571684
95297,0.00010988901333915456
95298,0.00010471261855046483
95299,0.00010023484504665837
95300,9.641938777287494e-05
95301,9.337756394300193e-05
95302,9.145204609410758e-05
95303,8.855698394139734e-05
95304,8.267008134577726e-05
95305,7.549045739486149e-05
95306,6.931652415101769e-05
95307,6.442997306704554e-05
95308,6.036673148200626e-05
95309,5.6953930922756614e-05
95310,5.427107826746841e-05
95311,5.195031120373618e-05
95312,4.9972813331959726e-05
95313,4.839627879933003e-05
95314,4.739830996492074e-05
95315,4.589783994656089e-05
95316,4.2846741082426514e-05
95317,3.912564291140373e-05
95318,3.592578009703537e-05
95319,3.339314935961926e-05
95320,3.128722836238028e-05
95321,2.9518421805670647e-05
95322,2.81279369868323e-05
95323,2.692511604032264e-05
95324,2.5900206690727782e-05
95325,2.5083111003540104e-05
95326,2.456587778494173e-05
95327,2.3788205266274345e-05
95328,2.2206863613764537e-05
95329,2.0278270738559296e-05
95330,1.861982682179243e-05
95331,1.730719991134358e-05
95332,1.621573066104324e-05
95333,1.529898308650965e-05
95334,1.4578314350711257e-05
95335,1.3954909161982106e-05
95336,1.3423713053061231e-05
95337,1.3000223844165152e-05
95338,1.273214913762385e-05
95339,1.2329092402807152e-05
95340,1.1509505252958472e-05
95341,1.0509942675637352e-05
95342,9.650394506037486e-06
95343,8.970078429722166e-06
95344,8.404385259886697e-06
95345,7.929247878568642e-06
95346,7.555735403120586e-06
95347,7.232633256901595e-06
95348,6.957321780580086e-06
95349,6.737833276524093e-06
95350,6.598893924403698e-06
95351,6.38999528444728e-06
95352,5.9652147854760645e-06
95353,5.447155552329458e-06
95354,5.001663818546371e-06
95355,4.649065559278012e-06
95356,4.3558747412037096e-06
95357,4.1096177153908655e-06
95358,3.916031449766653e-06
95359,3.74857214917255e-06
95360,3.6058820810011005e-06
95361,3.492124274660964e-06
95362,3.420113961503497e-06
95363,3.3118447328662757e-06
95364,3.091686971315781e-06
95365,2.8231841530452764e-06
95366,2.592292049626048e-06
95367,2.409545328260237e-06
95368,2.2575886485851406e-06
95369,2.129957093698927e-06
95370,2.0296240534346794e-06
95371,1.942832251883292e-06
95372,1.8688779953197328e-06
95373,1.8099189233675237e-06
95374,1.772596990294574e-06
95375,1.7164825710137948e-06
95376,1.6023778979218953e-06
95377,1.4632166615101476e-06
95378,1.343548529918478e-06
95379,1.248833473073754e-06
95380,1.1700764620270163e-06
95381,1.1039268212242686e-06
95382,1.051925616819569e-06
95383,1.0069426460928856e-06
95384,9.686131944782356e-07
95385,9.380555362629217e-07
95386,9.187121029791947e-07
95387,8.896287882566903e-07
95388,8.304899401428888e-07
95389,7.583646274762034e-07
95390,6.963423170265485e-07
95391,6.472528344571632e-07
95392,6.06434182705374e-07
95393,5.721497537314134e-07
95394,5.451982604604284e-07
95395,5.218842190506576e-07
95396,5.020186030692817e-07
95397,4.861809983600212e-07
95398,4.761555687963744e-07
95399,4.6108209559484464e-07
95400,4.304312619220599e-07
95401,3.930497262200102e-07
95402,3.6090443455088593e-07
95403,3.354620457775721e-07
95404,3.1430631235537455e-07
95405,2.9653717474848183e-07
95406,2.8256859463862764e-07
95407,2.704852546974066e-07
95408,2.601891851818006e-07
95409,2.5198077728747157e-07
95410,2.4678473807036946e-07
95411,2.3897236879523227e-07
95412,2.230864725561159e-07
95413,2.0371214806755024e-07
95414,1.8705169525626966e-07
95415,1.7386526279433654e-07
95416,1.6290054354411125e-07
95417,1.5369104930016454e-07
95418,1.4645133058315097e-07
95419,1.4018870534504382e-07
95420,1.3485239724518042e-07
95421,1.305980948177252e-07
95422,1.2790506073132916e-07
95423,1.2385601955315445e-07
95424,1.1562258283772682e-07
95425,1.0558114279684448e-07
95426,9.694626429787242e-08
95427,9.011192171226163e-08
95428,8.44290618540392e-08
95429,7.965591044367545e-08
95430,7.590366600012597e-08
95431,7.265783537185896e-08
95432,6.989210189526333e-08
95433,6.76871567491095e-08
95434,6.62913950376466e-08
95435,6.419283391167285e-08
95436,5.992555939806805e-08
95437,5.472122217567129e-08
95438,5.0245886028653386e-08
95439,4.670374233570751e-08
95440,4.375839595417273e-08
95441,4.1284538673548186e-08
95442,3.9339803123110145e-08
95443,3.765753473456125e-08
95444,3.6224093951080695e-08
95445,3.5081301876363185e-08
95446,3.435789820129386e-08
95447,3.327024346881384e-08
95448,3.1058575072755075e-08
95449,2.8361240246858497e-08
95450,2.6041736430888252e-08
95451,2.420589314613801e-08
95452,2.2679361518815148e-08
95453,2.1397196064853007e-08
95454,2.038926696587353e-08
95455,1.9517370907445538e-08
95456,1.8774438698997678e-08
95457,1.8182145630702893e-08
95458,1.7807215674675286e-08
95459,1.7243499515806065e-08
95460,1.6097222875170392e-08
95461,1.4699232150879105e-08
95462,1.3497065927927233e-08
95463,1.2545574159573927e-08
95464,1.175439427532456e-08
95465,1.1089865943714858e-08
95466,1.056747045999948e-08
95467,1.0115578989008918e-08
95468,9.730527668640446e-09
95469,9.423550497104869e-09
95470,9.229229571221553e-09
95471,8.937063410140557e-09
95472,8.342964340312327e-09
95473,7.618405399226898e-09
95474,6.995339544514412e-09
95475,6.502194735932743e-09
95476,6.092137323405612e-09
95477,5.747721630292567e-09
95478,5.476971394306196e-09
95479,5.2427623970523375e-09
95480,5.043195710305425e-09
95481,4.884093757423746e-09
95482,4.783379953074198e-09
95483,4.631954338715304e-09
95484,4.324041141971598e-09
95485,3.948512427807217e-09
95486,3.625586153639104e-09
95487,3.369996131402833e-09
95488,3.1574691385964178e-09
95489,2.9789633262479836e-09
95490,2.8386372848256653e-09
95491,2.717250053784512e-09
95492,2.6138174453181193e-09
95493,2.5313571396082836e-09
95494,2.479158590530508e-09
95495,2.400676823172065e-09
95496,2.241089741582557e-09
95497,2.0464584877735913e-09
95498,1.8790903391912554e-09
95499,1.7466216234511027e-09
95500,1.6364718705348582e-09
95501,1.5439548172201131e-09
95502,1.4712258024899123e-09
95503,1.408312506960675e-09
95504,1.3547048399268997e-09
95505,1.3119668226078017e-09
95506,1.2849130483668016e-09
95507,1.2442370515496027e-09
95508,1.16152531044987e-09
95509,1.0606506674986841e-09
95510,9.739061087536874e-10
95511,9.052494354754795e-10
95512,8.481603668950886e-10
95513,8.002100786583346e-10
95514,7.625156526629007e-10
95515,7.299085759514526e-10
95516,7.021244756815861e-10
95517,6.799739620660436e-10
95518,6.659523711671764e-10
95519,6.448705737923012e-10
95520,6.020022410450036e-10
95521,5.497203315808796e-10
95522,5.047618461366645e-10
95523,4.691780574715965e-10
95524,4.395895957175807e-10
95525,4.1473763535341123e-10
95526,3.952011442240295e-10
95527,3.7830135471654523e-10
95528,3.6390124610298384e-10
95529,3.5242094626200163e-10
95530,3.4515375279820627e-10
95531,3.3422735356200177e-10
95532,3.1200929929184486e-10
95533,2.8491232053438287e-10
95534,2.6161096950232996e-10
95535,2.431683920324116e-10
95536,2.2783310822521413e-10
95537,2.1495268650819005e-10
95538,2.0482719777692128e-10
95539,1.9606827443262154e-10
95540,1.886049005580584e-10
95541,1.8265482252707415e-10
95542,1.7888833830847545e-10
95543,1.7322533917486214e-10
95544,1.6171003396200068e-10
95545,1.4766605076956986e-10
95546,1.3558928807273357e-10
95547,1.260307594142088e-10
95548,1.1808269738238065e-10
95549,1.1140695586431592e-10
95550,1.0615905738714982e-10
95551,1.0161943054047561e-10
95552,9.775126877265018e-11
95553,9.466742696841279e-11
95554,9.271531114273276e-11
95555,8.978025829558412e-11
95556,8.381203747241936e-11
95557,7.653323839763448e-11
95558,7.02740220528367e-11
95559,6.531997101171377e-11
95560,6.120060218515583e-11
95561,5.7740659196091195e-11
95562,5.502074718418073e-11
95563,5.266792240230191e-11
95564,5.0663108532121495e-11
95565,4.906479667401816e-11
95566,4.805304248212404e-11
95567,4.653184584897906e-11
95568,4.3438600890584595e-11
95569,3.96661016469481e-11
95570,3.642203780016513e-11
95571,3.3854422783793036e-11
95572,3.17194118262459e-11
95573,2.992617201083617e-11
95574,2.85164798483975e-11
95575,2.7297043837202285e-11
95576,2.6257976989610932e-11
95577,2.5429594420750383e-11
95578,2.4905216445146008e-11
95579,2.4116801613385955e-11
95580,2.2513616232661526e-11
95581,2.0558382904056608e-11
95582,1.8877030213515558e-11
95583,1.7546271443051804e-11
95584,1.6439725275236303e-11
95585,1.551031428617256e-11
95586,1.4779690654180442e-11
95587,1.4147674110979867e-11
95588,1.3609140369856918e-11
95589,1.3179801328847541e-11
95590,1.290802359518265e-11
95591,1.2499399270492863e-11
95592,1.1668490823364067e-11
95593,1.0655120873526163e-11
95594,9.78369940850382e-12
95595,9.09398584401921e-12
95596,8.520478519769263e-12
95597,8.038777868707665e-12
95598,7.660105910496661e-12
95599,7.332540620303458e-12
95600,7.053426152355447e-12
95601,6.8309057625452134e-12
95602,6.690047183519477e-12
95603,6.478262939994488e-12
95604,6.047614771784514e-12
95605,5.522399371550315e-12
95606,5.070753875650626e-12
95607,4.713285030362994e-12
95608,4.416044245897891e-12
95609,4.166385569635723e-12
95610,3.9701252166214325e-12
95611,3.8003527312431425e-12
95612,3.655691625969674e-12
95613,3.5403624358618103e-12
95614,3.4673574143775473e-12
95615,3.3575926179731673e-12
95616,3.1343937259370398e-12
95617,2.8621819668580432e-12
95618,2.6281004550361546e-12
95619,2.4428293774015433e-12
95620,2.2887736570757743e-12
95621,2.1593790745780897e-12
95622,2.057660092408751e-12
95623,1.969669399699759e-12
95624,1.894693582312753e-12
95625,1.8349200842424017e-12
95626,1.7970826078261169e-12
95627,1.740193056794558e-12
95628,1.6245122085206023e-12
95629,1.4834286802237551e-12
95630,1.3621075230899508e-12
95631,1.2660841278755488e-12
95632,1.1862392135654205e-12
95633,1.1191758203342226e-12
95634,1.0664563017220612e-12
95635,1.0208519625609977e-12
95636,9.819930503314592e-13
95637,9.5101328650736e-13
95638,9.314026543556863e-13
95639,9.019175997426463e-13
95640,8.419618421880082e-13
95641,7.688402326586017e-13
95642,7.059611823067536e-13
95643,6.561936063514511e-13
95644,6.148111096307152e-13
95645,5.800530956175494e-13
95646,5.527293101900559e-13
95647,5.29093222255215e-13
95648,5.089531942796793e-13
95649,4.928968181668509e-13
95650,4.827329031859159e-13
95651,4.674512138463098e-13
95652,4.363769874934947e-13
95653,3.9847908513227e-13
95654,3.658897572148842e-13
95655,3.400959221714915e-13
95656,3.1864795582776044e-13
95657,3.006333657521509e-13
95658,2.8647183185082503e-13
95659,2.7422157972261274e-13
95660,2.6378328632779585e-13
95661,2.554614922902295e-13
95662,2.501936780280125e-13
95663,2.4227339325536884e-13
95664,2.2616805854175064e-13
95665,2.0652610847221173e-13
95666,1.8963551791519826e-13
95667,1.7626693579170287e-13
95668,1.651507563261146e-13
95669,1.5581404751791506e-13
95670,1.4847432356309995e-13
95671,1.42125190084731e-13
95672,1.3671516934748917e-13
95673,1.3240210047584355e-13
95674,1.2967186639249394e-13
95675,1.2556689412891114e-13
95676,1.1721972553675805e-13
95677,1.0703957891922395e-13
95678,9.828542326164517e-14
95679,9.135667506689307e-14
95680,8.559531550809815e-14
95681,8.075623057731537e-14
95682,7.695215482476973e-14
95683,7.36614881916065e-14
95684,7.085755049122345e-14
95685,6.862214752311554e-14
95686,6.720710557614554e-14
95687,6.507955615481841e-14
95688,6.075333600821618e-14
95689,5.547710911691528e-14
95690,5.093995329524997e-14
95691,4.734888050212955e-14
95692,4.436284882924481e-14
95693,4.1854819131803224e-14
95694,3.988322014249625e-14
95695,3.8177713882861636e-14
95696,3.6724472387222255e-14
95697,3.5565894451526294e-14
95698,3.483249810141259e-14
95699,3.3729819142934395e-14
